Write outputs from the Runge-Kutta solution for each time step
time[s]	u[m/s]	v[m/s]	r[rad/s]
=============================================================
0	12.349826589818731	-0.01585685152270447	-0.0004598526584854166
0.1	12.349654018490755	-0.031310731680012874	-0.0009148555661359717
0.2	12.349483755021286	-0.04636632159734643	-0.0013649264660619122
0.30000000000000004	12.349317187585392	-0.06102828564523878	-0.0018099856989826164
0.4	12.349155625139351	-0.0753012741229922	-0.002249956405386672
0.5	12.349000299059542	-0.08918992565098761	-0.002684764711846101
0.6	12.348852364808854	-0.10269886928270405	-0.0031143399015508837
0.7	12.34871290363026	-0.11583272634758471	-0.003538614569176205
0.7999999999999999	12.348582924266774	-0.12859611203596036	-0.003957524760240356
0.8999999999999999	12.348463364706749	-0.14099363673730356	-0.004371010095155674
0.9999999999999999	12.348355093953106	-0.15302990714313486	-0.004779013878217892
1.0999999999999999	12.348258913814856	-0.16470952712593412	-0.005181483191820549
1.2	12.348175560719044	-0.1760370984054217	-0.0055783689762203235
1.3	12.348105707540984	-0.18701722101356608	-0.005969626095216165
1.4000000000000001	12.348049965450533	-0.19765449356964265	-0.00635521338813957
1.5000000000000002	12.348008885771957	-0.2079535133766145	-0.006735093708585215
1.6000000000000003	12.34798296185482	-0.2179188763500261	-0.007109233950340209
1.7000000000000004	12.347972630953256	-0.22755517679049764	-0.0074776050609963425
1.8000000000000005	12.347978276110862	-0.23686700701077865	-0.00784018204375288
1.9000000000000006	12.348000228048429	-0.2458589568281666	-0.008196943947937492
2.0000000000000004	12.3480387670517	-0.25453561293291815	-0.00854787384879001
2.1000000000000005	12.3480941248563	-0.26290155814307975	-0.008892958817067562
2.2000000000000006	12.348166486527042	-0.270961370555941	-0.009232189879040661
2.3000000000000007	12.3482559923288	-0.27871962260606803	-0.009565561967457694
2.400000000000001	12.348362739586204	-0.2861808800396097	-0.00989307386406035
2.500000000000001	12.348486784529467	-0.2933497008142846	-0.010214728134234755
2.600000000000001	12.348628144123749	-0.3002306339341562	-0.01053053105438261
2.700000000000001	12.348786797879518	-0.30682821822798606	-0.01084049253259364
2.800000000000001	12.348962689641466	-0.31314698107962424	-0.011144626023195206
2.9000000000000012	12.349155729353702	-0.3191914371185556	-0.01144294843574723
3.0000000000000013	12.349365794798986	-0.32496608687836454	-0.011735480039040767
3.1000000000000014	12.349592733309931	-0.33047541543052344	-0.01202224436064678
3.2000000000000015	12.349836363450232	-0.3357238910005404	-0.01230326808254816
3.3000000000000016	12.350096476664099	-0.3407159635731307	-0.01257858093337292
3.4000000000000017	12.35037283889223	-0.345456063492702	-0.012848215577729869
3.5000000000000018	12.350665192152753	-0.34994860006506656	-0.013112207503130396
3.600000000000002	12.350973256085775	-0.35419796016591865	-0.013370594904960977
3.700000000000002	12.35129672946026	-0.35820850686124234	-0.013623418569951373
3.800000000000002	12.351635291642141	-0.3619845780444441	-0.013870721758562849
3.900000000000002	12.35198860402265	-0.36553048509464087	-0.01411255008669973
4.000000000000002	12.35235631140608	-0.36885051156017395	-0.01434895140712598
4.100000000000001	12.352738043356245	-0.3719489118710702	-0.014579975690946703
4.200000000000001	12.353133415501066	-0.3748299100838266	-0.01480567490949248
4.300000000000001	12.353542030794848	-0.3774976986615628	-0.015026102916922371
4.4	12.353963480737937	-0.37995643729226214	-0.015241315333839557
4.5	12.354397346553522	-0.3822102517475108	-0.015451369432191768
4.6	12.354843200321541	-0.3842632327838425	-0.01565632402170729
4.699999999999999	12.355300606069665	-0.38611943508851104	-0.01585623933809622
4.799999999999999	12.355769120821513	-0.38778287627123437	-0.016051176933226035
4.899999999999999	12.356248295602311	-0.38925753590319423	-0.016241199567460604
4.999999999999998	12.356737676402295	-0.3905473546043248	-0.016426371104332132
5.099999999999998	12.357236805098271	-0.3916562331796889	-0.01660675640769687
5.1999999999999975	12.35774522033379	-0.3925880318055171	-0.016782421241507302
5.299999999999997	12.3582624583585	-0.39334656926527856	-0.01695343217231608
5.399999999999997	12.358788053827286	-0.39393562223595446	-0.017119856474610447
5.4999999999999964	12.359321540559872	-0.39435892462450556	-0.01728176203906013
5.599999999999996	12.359862452261622	-0.3946201669543547	-0.017439217283746512
5.699999999999996	12.360410323206318	-0.3947229958015507	-0.017592291068426958
5.799999999999995	12.360964688881758	-0.3946710132801351	-0.01774105261187457
5.899999999999995	12.36152508659902	-0.394467776576104	-0.017885571412321277
5.999999999999995	12.362091056066307	-0.3941167975292359	-0.018025917171020416
6.099999999999994	12.362662139928306	-0.3936215422619508	-0.018162159718933923
6.199999999999994	12.363237884272008	-0.39298543085426696	-0.018294368946539335
6.299999999999994	12.363817839099974	-0.3922118370638372	-0.01842261473674228
6.399999999999993	12.364401558772036	-0.3913040880899695	-0.018546966900871674
6.499999999999993	12.364988602416432	-0.3902654643804707	-0.0186674951177269
6.5999999999999925	12.365578534311407	-0.38909919948009464	-0.01878426887563915
6.699999999999992	12.366170924238283	-0.38780847991932765	-0.01889735741750268
6.799999999999992	12.366765347807009	-0.3863964451422034	-0.01900682968872583
6.8999999999999915	12.36736138675524	-0.3848661874718066	-0.019112754288046662
6.999999999999991	12.367958629221928	-0.3832207521120999	-0.019215199421153267
7.099999999999991	12.36855666999645	-0.38146313718468816	-0.019314232857045036
7.19999999999999	12.369155110744268	-0.37959629379912346	-0.01940992188706753
7.29999999999999	12.369753560210107	-0.3776231261553453	-0.01950233328655075
7.39999999999999	12.370351634399617	-0.37554649167685067	-0.01959153327897808
7.499999999999989	12.37094895674049	-0.37336920117319083	-0.01967758750261118
7.599999999999989	12.371545158223967	-0.3710940190304004	-0.019760560979494437
7.699999999999989	12.37213987752765	-0.3687236634279753	-0.019840518086761474
7.799999999999988	12.372732761120542	-0.36626080658103266	-0.019917522530165245
7.899999999999988	12.373323463351179	-0.3637080750063041	-0.019991637319752786
7.999999999999988	12.37391164651972	-0.361068049810636	-0.020062924747605494
8.099999999999987	12.374496980934845	-0.358343267000695	-0.020131446367565795
8.199999999999987	12.375079144956265	-0.3555362178126033	-0.020197262976871497
8.299999999999986	12.375657825023639	-0.3526493490602581	-0.02026043459961959
8.399999999999986	12.376232715672677	-0.34968506350111955	-0.020321020471982063
8.499999999999986	12.376803519539154	-0.3466457202182838	-0.02037907902909731
8.599999999999985	12.377369947351585	-0.3435336350176915	-0.02043466789356173
8.699999999999985	12.377931717913226	-0.34035108083935545	-0.02048784386544754
8.799999999999985	12.378488558074087	-0.3371002881815282	-0.020538662913774066
8.899999999999984	12.379040202693616	-0.3337834455367641	-0.02058718016936152
8.999999999999984	12.379586394594655	-0.33040269983886766	-0.02063344991899769
9.099999999999984	12.38012688450928	-0.3269601569197565	-0.0206775256008498
9.199999999999983	12.380661431017101	-0.3234578819753034	-0.02071945980105563
9.299999999999983	12.38118980047657	-0.3198979000392586	-0.02075930425142965
9.399999999999983	12.381711766949822	-0.31628219646439015	-0.02079710982822201
9.499999999999982	12.382227112121571	-0.3126127174100159	-0.02083292655187002
9.599999999999982	12.382735625212522	-0.30889137033513614	-0.020866803587683797
9.699999999999982	12.383237102887783	-0.30512002449641235	-0.020898789247409615
9.799999999999981	12.383731349160701	-0.3013005114502707	-0.02092893099161658
9.89999999999998	12.384218175292556	-0.2974346255584439	-0.02095727543285414
9.99999999999998	12.384697399688504	-0.2935241244962986	-0.02098386833952997
10.09999999999998	12.38516884779015	-0.28957072976332754	-0.02100875464045968
10.19999999999998	12.385632351965116	-0.28557612719521763	-0.021031978430041724
10.29999999999998	12.386087751393948	-0.2815419674769373	-0.02105358297401287
10.399999999999979	12.386534891954678	-0.27746986665631485	-0.021073610715741365
10.499999999999979	12.38697362610536	-0.27336140665761016	-0.02109210328301686
10.599999999999978	12.38740381276486	-0.26921813579461074	-0.021109101495297974
10.699999999999978	12.387825317192183	-0.26504156928280925	-0.021124645371380067
10.799999999999978	12.388238010864594	-0.26083318975024783	-0.021138774137447643
10.899999999999977	12.38864177135477	-0.2565944477466391	-0.021151526235477412
10.999999999999977	12.389036482207226	-0.252326762250399	-0.02116293933195971
11.099999999999977	12.389422032814215	-0.24803152117325072	-0.02117305032690759
11.199999999999976	12.389798318291316	-0.24371008186208049	-0.021181895363124467
11.299999999999976	12.390165239352896	-0.23936377159775032	-0.02118950983570261
11.399999999999975	12.390522702187624	-0.23499388809059146	-0.02119592840172638
11.499999999999975	12.390870618334198	-0.23060169997232416	-0.021201184990155393
11.599999999999975	12.391208904557445	-0.22618844728416804	-0.02120531281186421
11.699999999999974	12.391537482724937	-0.2217553419609257	-0.021208344369816442
11.799999999999974	12.391856279684255	-0.21730356831084036	-0.021210311469352476
11.899999999999974	12.39216522714102	-0.21283428349104444	-0.0212112452285711
11.999999999999973	12.392464261537816	-0.20834861797843265	-0.021211176088786664
12.099999999999973	12.392753323934109	-0.2038476760358079	-0.021210133825044383
12.199999999999973	12.393032359887242	-0.19933253617316288	-0.021208147556677513
12.299999999999972	12.393301319334617	-0.19480425160397444	-0.021205245757891185
12.399999999999972	12.393560156477141	-0.19026385069639984	-0.021201456268358596
12.499999999999972	12.393808829664001	-0.18571233741927742	-0.02119680630381628
12.599999999999971	12.394047301278837	-0.18115069178284512	-0.021191322466646012
12.69999999999997	12.394275537627387	-0.17657987027410163	-0.021185030756431775
12.79999999999997	12.394493508826644	-0.1720008062867453	-0.021177956580481053
12.89999999999997	12.394701188695585	-0.16741441054563574	-0.021170124764300472
12.99999999999997	12.394898554647511	-0.16282157152573232	-0.021161559562016548
13.09999999999997	12.395085587584031	-0.15822315586547214	-0.02115228466673302
13.199999999999969	12.395262271790736	-0.15362000877455914	-0.021142323220816883
13.299999999999969	12.395428594834584	-0.14901295443614218	-0.021131697826105928
13.399999999999968	12.39558454746302	-0.14440279640336856	-0.0211204305540311
13.499999999999968	12.395730123504864	-0.1397903179903053	-0.02110854295564768
13.599999999999968	12.395865319772959	-0.13517628265722714	-0.021096056071569693
13.699999999999967	12.395990135968626	-0.1305614343902755	-0.021082990441802604
13.799999999999967	12.396104574587904	-0.12594649807549935	-0.02106936611546969
13.899999999999967	12.396208640829606	-0.12133217986729213	-0.02105520266042805
13.999999999999966	12.39630234250518	-0.11671916755124565	-0.021040519172770625
14.099999999999966	12.396385689950387	-0.11210813090144443	-0.021025334286210874
14.199999999999966	12.39645869593878	-0.10749972203222918	-0.021009666181347367
14.299999999999965	12.396521375597004	-0.10289457574446127	-0.020993532594805672
14.399999999999965	12.396573746321891	-0.09829330986632363	-0.020976950828255406
14.499999999999964	12.396615827699346	-0.09369652558869666	-0.02095993775730057
14.599999999999964	12.396647641425021	-0.08910480779515056	-0.020942509840241607
14.699999999999964	12.396669211226769	-0.0845187253865982	-0.02092468312670784
14.799999999999963	12.39668056278884	-0.07993883160065485	-0.020906473266159326
14.899999999999963	12.396681723677844	-0.0753656643257536	-0.020887895516257228
14.999999999999963	12.39667272327043	-0.07079974641006695	-0.020868964751102247
15.099999999999962	12.396653592682688	-0.06624158596528686	-0.020849695469340613
15.199999999999962	12.396624364701232	-0.061691676665317274	-0.02083010180213759
15.299999999999962	12.39658507371598	-0.057150498039934466	-0.020810197521018398
15.399999999999961	12.396535755654574	-0.05261851576347164	-0.020789996045576804
15.499999999999961	12.396476447918431	-0.048096181938585544	-0.020769510451051656
15.59999999999996	12.396407189320433	-0.043583935375163654	-0.02074875347577188
15.69999999999996	12.39632802002418	-0.03908220186443124	-0.020727737528470482
15.79999999999996	12.396238981484826	-0.034591394448318456	-0.02070647469546838
15.89999999999996	12.396140116391463	-0.030111913684148017	-0.020684976747728772
15.99999999999996	12.396031468611014	-0.0256441479047045	-0.020663255147783107
16.09999999999996	12.395913083133633	-0.02118847347374677	-0.020641321056529605
16.19999999999996	12.395785006019581	-0.01674525503702505	-0.020619185339905487
16.29999999999996	12.39564728434753	-0.012314845768864562	-0.020596858575434095
16.399999999999963	12.395499966164321	-0.007897587614377567	-0.02057435105864816
16.499999999999964	12.395343100436085	-0.003493811527365713	-0.020551672809390572
16.599999999999966	12.395176737000767	0.0008961622960254956	-0.020528833577994007
16.699999999999967	12.395000926521604	0.005272028165545256	-0.0205058427360536
16.79999999999997	12.394815720425443	0.009633573901075786	-0.020482706985530067
16.89999999999997	12.394621170689023	0.01398062758090127	-0.020459431892265324
16.99999999999997	12.394417329742726	0.018313022493867452	-0.020436022897670235
17.099999999999973	12.394204250446602	0.022630597021197463	-0.020412485321864376
17.199999999999974	12.393981986067034	0.026933194521357413	-0.020388824366728515
17.299999999999976	12.393750590254047	0.031220663217888262	-0.020365045118872077
17.399999999999977	12.393510117019225	0.03549285609012262	-0.020341152552517915
17.49999999999998	12.393260620714239	0.039749630766707136	-0.020317151532306586
17.59999999999998	12.393002156009956	0.04399084942185322	-0.02029304681602231
17.69999999999998	12.392734777876125	0.04821637867424082	-0.020268843057242743
17.799999999999983	12.392458541561618	0.05242608948850189	-0.020244544807914627
17.899999999999984	12.392173502575218	0.056619857079212056	-0.02022015652085737
17.999999999999986	12.39187971666693	0.06079756081732102	-0.020195682552196496
18.099999999999987	12.391577239809815	0.06495908413895381	-0.02017112716372893
18.19999999999999	12.391266128182327	0.06910431445651702	-0.020146494525221995
18.29999999999999	12.39094643815114	0.07323314307204577	-0.02012178871664797
18.39999999999999	12.390618226254448	0.07734546509272897	-0.020097013730355977
18.499999999999993	12.390281549185737	0.0814411793485518	-0.020072173473182974
18.599999999999994	12.38993646377801	0.0855201883119967	-0.020047271768505567
18.699999999999996	12.389583026988458	0.0895823980197447	-0.020022312358234276
18.799999999999997	12.389221295883553	0.0936277179963215	-0.019997298904751916
18.9	12.388851327624574	0.09765606117963364	-0.019972234992797638
19.0	12.38847317945353	0.10166734384834165	-0.0199471241312982
19.1	12.388086908679501	0.10566148555101877	-0.019921969755147963
19.200000000000003	12.387692572665344	0.10963840903704505	-0.01989677522693905
19.300000000000004	12.387290228814804	0.11359804018918801	-0.019871543838643133
19.400000000000006	12.386879934559978	0.11754030795782254	-0.01984627881324622
19.500000000000007	12.386461747349149	0.12146514429674393	-0.019820983306337765
19.60000000000001	12.386035724634969	0.1253724841005292	-0.01979566040765547
19.70000000000001	12.385601923862982	0.12926226514340325	-0.019770313142587002
19.80000000000001	12.385160402460494	0.13313442801956735	-0.01974494447362991
19.900000000000013	12.384711217825753	0.13698891608494915	-0.019719557301810946
20.000000000000014	12.384254427317458	0.1408256754003339	-0.01969415446806596
20.100000000000016	12.383790088244577	0.14464465467583812	-0.019668738754581513
20.200000000000017	12.383318257856462	0.14844580521668838	-0.019643312886099353
20.30000000000002	12.38283899333327	0.15222908087026776	-0.019617879531184792
20.40000000000002	12.382352351776658	0.1559944379743952	-0.0195924413034601
20.50000000000002	12.381858390200778	0.15974183530680247	-0.019567000762803873
20.600000000000023	12.381357165523518	0.1634712340357757	-0.01954156041651744
20.700000000000024	12.380848734558041	0.16718259767192845	-0.019516122720459238
20.800000000000026	12.380333154004562	0.17087589202107467	-0.019490690080148088
20.900000000000027	12.37981048044239	0.1745510851381711	-0.01946526485183635
21.00000000000003	12.379280770322218	0.17820814728229875	-0.019439849343553785
21.10000000000003	12.378744079958647	0.18184705087265468	-0.019414445816122998
21.20000000000003	12.378200465522955	0.18546777044552604	-0.019389056484147356
21.300000000000033	12.377649983036093	0.18907028261221864	-0.019363683516972128
21.400000000000034	12.377092688361905	0.1926545660179138	-0.019338329039619687
21.500000000000036	12.376528637200572	0.19622060130142754	-0.01931299513369954
21.600000000000037	12.375957885082256	0.1997683710558472	-0.019287683838293917
21.70000000000004	12.375380487360978	0.20329785979002088	-0.019262397150819663
21.80000000000004	12.37479649920867	0.20680905389087673	-0.019237137027867137
21.90000000000004	12.374205975609454	0.21030194158654844	-0.019211905386016803
22.000000000000043	12.373608971354095	0.21377651291028524	-0.019186704102634185
22.100000000000044	12.373005541034647	0.21723275966512476	-0.019161535016643826
22.200000000000045	12.372395739039302	0.22067067538930768	-0.01913639992928287
22.300000000000047	12.37177961954739	0.22409025532241397	-0.01911130060483493
22.40000000000005	12.371157236524576	0.22749149637220095	-0.019086238771344737
22.50000000000005	12.370528643718231	0.2308743970821243	-0.019061216121314256
22.60000000000005	12.369893894652952	0.23423895759952293	-0.019036234312380752
22.700000000000053	12.369253042626264	0.23758517964445047	-0.019011294967977373
22.800000000000054	12.368606140704475	0.2409130664791352	-0.01898639967797677
22.900000000000055	12.36795324171869	0.24422262287805194	-0.018961549999318275
23.000000000000057	12.36729439826097	0.24751385509858925	-0.018936747456619135
23.10000000000006	12.366629662680651	0.2507867708522962	-0.018911993542770247
23.20000000000006	12.365959087080801	0.25404137927669307	-0.018887289719516916
23.30000000000006	12.365282723314822	0.2572776909076308	-0.01886263741802505
23.400000000000063	12.364600622983186	0.26049571765218543	-0.018838038039433225
23.500000000000064	12.363912837430314	0.2636954727620723	-0.018813492955391087
23.600000000000065	12.363219417741584	0.2668769708075671	-0.018789003508584468
23.700000000000067	12.362520414740464	0.2700402276519207	-0.018764571013247622
23.800000000000068	12.361815878985775	0.27318526042625363	-0.01874019675566299
23.90000000000007	12.361105860769078	0.27631208750491937	-0.01871588199464884
24.00000000000007	12.360390410112178	0.27942072848132327	-0.018691627962035176
24.100000000000072	12.359669576764748	0.28251120414418546	-0.018667435863128263
24.200000000000074	12.358943410202066	0.28558353645423684	-0.018643306877164086
24.300000000000075	12.358211959622862	0.28863774852133667	-0.018619242157751133
24.400000000000077	12.357475273947278	0.29167386458200123	-0.01859524283330275
24.500000000000078	12.356733401814935	0.2946919099773331	-0.018571310007459468
24.60000000000008	12.355986391583096	0.2976919111313411	-0.018547444759501503
24.70000000000008	12.355234291324942	0.300673895529641	-0.01852364814475185
24.800000000000082	12.354477148827938	0.30363789169852795	-0.018499921194970122
